栅极电压(V),栅极电流(A),漏极电压(V),漏极电流(A),放大倍数
-9.99876,0.00313312,0.499769,0.0020207,0.644948
-9.87726,0.00294958,0.49977,0.00188606,0.639433
-9.75566,0.0029019,0.49977,0.00186179,0.641576
-9.63515,0.00285224,0.49977,0.00182721,0.640623
-9.5139,0.00281695,0.49977,0.00179859,0.638488
-9.3923,0.00278477,0.49977,0.00177712,0.638157
-9.27075,0.0027651,0.499769,0.00176543,0.638469
-9.15026,0.00273535,0.49977,0.00174802,0.639048
-9.0286,0.00270602,0.49977,0.00173079,0.639607
-8.907,0.00268588,0.49977,0.00171499,0.638521
-8.78647,0.00266459,0.49977,0.00170121,0.638451
-8.66493,0.0026451,0.49977,0.00168827,0.638263
-8.54333,0.00262633,0.499769,0.001681,0.640057
-8.42318,0.00261333,0.49977,0.0016714,0.639567
-8.30156,0.00258633,0.499771,0.00165458,0.63974
-8.18006,0.0025759,0.49977,0.00164653,0.639206
-8.05958,0.00254526,0.49977,0.0016287,0.639895
-7.93796,0.00251396,0.49977,0.00161487,0.642361
-7.81661,0.00249233,0.499769,0.00160276,0.643077
-7.69609,0.00246824,0.499769,0.00158905,0.643799
-7.57456,0.00244571,0.499769,0.00157563,0.644242
-7.45295,0.0024289,0.499771,0.00156824,0.645659
-7.33173,0.00241144,0.49977,0.00156287,0.648107
-7.21125,0.0024044,0.499769,0.0015587,0.64827
-7.08959,0.0023963,0.499769,0.00155655,0.649564
-6.96806,0.00237156,0.49977,0.00154331,0.650757
-6.84757,0.00234819,0.49977,0.00154105,0.656271
-6.72619,0.002311,0.499771,0.00155095,0.671116
-6.60458,0.00229484,0.499769,0.0016098,0.701487
-6.48417,0.00227171,0.49977,0.00171594,0.755352
-6.36258,0.00225824,0.49977,0.00189519,0.839233
-6.24093,0.00223434,0.49977,0.00214402,0.959576
-6.12079,0.00220501,0.49977,0.00245212,1.11207
-5.99919,0.00216895,0.49977,0.00281401,1.29741
-5.87767,0.00212758,0.49977,0.00304024,1.42897
-5.75606,0.00210046,0.499769,0.00343552,1.6356
-5.63579,0.00207065,0.49977,0.00389419,1.88066
-5.51417,0.00203739,0.49977,0.00420432,2.06358
-5.39254,0.00199453,0.49977,0.00450175,2.25705
-5.27211,0.0019531,0.499769,0.00471338,2.41328
-5.15052,0.00190631,0.499769,0.00488845,2.56435
-5.02928,0.0018597,0.49977,0.00501468,2.6965
-4.90877,0.00181577,0.49977,0.0051535,2.83819
-4.78725,0.00177118,0.499769,0.00520221,2.93714
-4.66566,0.00172379,0.499769,0.00529058,3.06916
-4.54513,0.00167592,0.499769,0.00536417,3.20073
-4.42399,0.0016252,0.49977,0.0054294,3.34076
-4.30238,0.00155879,0.499769,0.00545015,3.4964
-4.18195,0.00150967,0.49977,0.0054721,3.6247
-4.06034,0.001454,0.49977,0.00544288,3.74338
-3.93911,0.00140536,0.49977,0.00544264,3.87277
-3.81752,0.001356,0.499768,0.00544234,4.01353
-3.69699,0.00130623,0.499769,0.0055009,4.21128
-3.57547,0.00125973,0.499769,0.00551694,4.37946
-3.45387,0.00121199,0.499769,0.00553339,4.56554
-3.3337,0.00116448,0.499769,0.00556547,4.77936
-3.21209,0.00111727,0.49977,0.00556196,4.97817
-3.09058,0.00107226,0.499769,0.00556667,5.19153
-2.97009,0.00102577,0.49977,0.00557889,5.43873
-2.84846,0.000973194,0.499769,0.00531956,5.46608
-2.72721,0.000936118,0.49977,0.0056025,5.98482
-2.60672,0.000892067,0.49977,0.00560358,6.28157
-2.48517,0.000847658,0.499769,0.00558438,6.58801
-2.36358,0.000802832,0.499769,0.00557466,6.94374
-2.24209,0.000761881,0.499769,0.00553244,7.26155
-2.12161,0.000721407,0.499769,0.0055557,7.7012
-1.99995,0.000677833,0.499769,0.005478,8.08164
-1.87842,0.000638312,0.499769,0.00551652,8.64236
-1.75794,0.000584664,0.499771,0.00491945,8.41415
-1.63668,0.000553548,0.49977,0.00532976,9.62836
-1.51508,0.000514028,0.499769,0.00541282,10.5302
-1.39467,0.000477189,0.499769,0.00546285,11.448
-1.27307,0.000427416,0.49977,0.00490437,11.4745
-1.15142,0.000398148,0.499769,0.00529583,13.3012
-1.03112,0.000351713,0.49977,0.00486752,13.8395
-0.909526,0.000322624,0.499769,0.00532386,16.5017
-0.787989,0.000285249,0.49977,0.00526709,18.4649
-0.667503,0.000249603,0.49977,0.00528379,21.1688
-0.54627,0.00021193,0.49977,0.00509107,24.0224
-0.42465,0.000181589,0.499769,0.00534747,29.4482
-0.303015,0.000150533,0.499769,0.00531306,35.295
-0.182611,0.00012204,0.49977,0.0053046,43.4661
-0.0610188,9.50372e-5,0.49977,0.00529667,55.7326
0.0594954,0.000108717,0.499769,0.00523173,48.1225
0.18106,8.51131e-5,0.49977,0.00525677,61.7622
0.302549,6.22846e-5,0.49977,0.00524032,84.1351
0.42416,3.49856e-5,0.49977,0.00524461,149.908
0.544613,1.13479e-6,0.499769,0.00521325,4594.02
0.665813,5.93089e-5,0.49977,0.00518916,87.4938
0.787383,0.000157359,0.499769,0.00512869,32.5923
0.907783,0.000325801,0.49977,0.00494325,15.1726
1.02938,0.000559154,0.49977,0.00486686,8.70397
1.15075,0.000919285,0.49977,0.0044751,4.86802
1.27124,0.00132358,0.49977,0.00434224,3.28068
1.39278,0.00193393,0.49977,0.00396443,2.04993
1.5143,0.00271434,0.49977,0.00347237,1.27927
1.63586,0.00332707,0.49977,0.00304305,0.914634
1.75598,0.00392354,0.499769,0.00265909,0.677727
1.87757,0.00426156,0.49977,0.00241354,0.566351
1.99905,0.00485188,0.499771,0.00201939,0.416208
